TABLE 14 Bulk wave velocities (m/s), acoustic wave - fast quasi-shear, data set - Smith and Welsh [3]; temperature - 100.0°C; stoichiometry unknown.
0\ф		30.0	35.0	40.0 	45.0	50.0	55.0	60.0	65.0    70.0    75.0	80.0	85.0	90.0   
0.0    	3558.59 3558.59 3558.59 3558.59 3558.59 3558.59 3558.59 3558.59 3558.59 3558.59 3558.59 3558.59 3558.59 
5.0    	3618.23 3618.05 3617.51 3616.63 3615.46 3614.04 3612.45 3610.79 3609.16 3607.70 3606.52 3605.76 3605.49 
10.0    3697.77 3697.28 3695.82 3693.43 3690.14 3686.04 3681.27 3676.00 3670.52 3665.24 3660.71 3657.58 3656.46 
15.0    3780.61 3779.94 3777.92 3774.55 3769.84 3763.80 3756.50 3748.04 3738.68 3728.91 3719.65 3712.55 3709.79 
20.0    3853.54 3852.87 3850.85 3847.45 3842.62 3836.28 3828.35 3818.79 3807.57 3794.90 3781.44 3769.32 3763.81 
25.0    3910.03 3909.48 3907.83 3905.02 3900.99 3895.64 3888.83 3880.36 3870.00 3857.51 3842.82 3826.83 3816.89 
30.0    3951.07 3950.62 3949.27 3947.02 3943.84 3939.69 3934.47 3928.04 3920.13 3910.37 3898.18 3882.95 3867.47 
35.0    3983.59 3983.13 3981.75 3979.48 3976.37 3972.49 3967.88 3962.60 3956.60 3949.71 3941.43 3930.95 3919.05 
40.0    4017.66 4017.06 4015.30 4012.39 4008.40 4003.45 3997.71 3991.43 3984.90 3978.38 3971.88 3964.86 3955.95 
45.0    4063.11 4062.38 4060.18 4056.47 4051.23 4044.46 4036.30 4027.07 4017.34 4007.92 3999.73 3993.61 3990.96 
50.0    4126.66 4125.94 4123.72 4119.74 4113.62 4104.91 4093.34 4079.04 4062.87 4046.53 4032.31 4022.58 4019.10 
55.0    4209.83 4209.44 4208.02 4204.80 4198.48 4187.44 4170.33 4146.90 4118.77 4089.47 4063.62 4045.80 4039.42 
60.0    4307.97 4308.37 4309.00 4308.09 4302.60 4288.82 4263.76 4227.09 4182.01 4134.71 4092.64 4062.76 4051.40 
65.0    4410.22 4412.07 4416.61 4420.53 4418.19 4402.84 4369.52 4318.10 4254.02 4186.57 4125.92 4079.90 4054.75 
70.0    4500.66 4504.82 4515.74 4528.33 4533.61 4520.83 4482.47 4418.70 4337.72 4252.64 4177.52 4124.37 4103.87 
75.0    4561.45 4568.71 4588.59 4614.41 4633 66 4630.72 4594.41 4524.74 4432.98 4336.84 4255.05 4202.49 4185.04 
80.0    4578.59 4589.30 4619.52 4661.94 4701.36 4717.10 4692.90 4627.07 4533.44 4434.04 4350.97 4298.96 4281.87 
85.0    4548.31 4562.05 4601.80 4660.84 4721.98 4763.99 4762.08 4711.51 4626.38 4531.70 4451.66 4401.14 4384.33 
90.0    4478.55 4494.34 4541.02 4613.13 4695.01 4761.44 4787.23 4761.44 4695.01 4613.13 4541.02 4494.34 4478.55 