TABLE 11 Bulk wave velocities (m/s), acoustic wave - fast quasi-shear; data set - Smith and Welsh [3]; temperature - 50.0°C; stoichiometry - unknown.
0\ф		30.0    35.0    40.0    45.0	50.0    55.0    60.0	65.0	70.0    75.0    80.0	85.0	90.0   
0.0    	3573.53 3573.53 3573.53 3573.53 3573.53 3573.53 3573.53 3573.53 3573.53 3573.53 3573.53 3573.53 3573.53 
5.0    	3633.55 3633.37 3632.82 3631.93 3630.74 3629.30 3627.69 3626,00 3624.34 3622.85 3621.65 3620.87 3620.60 
10.0    3713.61 3713.11 3711.64 3709.21 3705.89 3701.74 3696.90 3691.56 3686.00 3680.62 3676.00 3672.80 3671.65 
15.0    3796.75 3796.08 3794.05 3790.66 3785.92 3779.84 3772.48 3763.94 3754.47 3744.54 3735.10 3727.83 3724.99 
20.0    3869.55 3868.88 3866.87 3863.49 3858.67 3852.34 3844.41 3834.82 3823.55 3810.75 3797.09 3784.67 3778.94 
25.0    3925.42 3924.88 3923.26 3920.50 3916.55 3911.29 3904.56 3896.18 3885.88 3873.41 3858.65 3842.35 3831.88 
30.0    3965.45 3965.02 3963.73 3961.57 3958.51 3954.50 3949.46 3943.23 3935.53 3925.96 3913.94 3898.77 3882.25 
35.0    3996.80 3996.36 3995.05 3992.89 3989.94 3986.24 3981.86 3976.84 3971.14 3964.57 3956.66 3946.62 3936.01 
40.0    4029.74 4029.18 4027.49 4024.70 4020.88 4016.15 4010.66 4004.66 3998.44 3992.25 3986.13 3979.55 3971.88 
45.0    4074.28 4073.58 4071.47 4067.91 4062.87 4056.35 4048.49 4039.59 4030.20 4021.11 4013.22 4007.34 4004.81 
50.0    4137.19 4136.51 4134.39 4130.59 4124.72 4116.34 4105.16 4091.27 4075.49 4059.50 4045.54 4035.98 4032.57 
55.0    4219.98 4219.63 4218.33 4215.31 4209.28 4198.64 4181.96 4158.95 4131.19 4102.15 4076.50 4058.81 4052.48 
60.0    4317.94 4318.37 4319.12 4318.42 4313.25 4299.87 4275.23 4238.92 4194.10 4146.97 4105.03 4075.30 4064.04 
65.0    4420.14 4422.02 4426.65 4430.75 4428.72 4413.75 4380.81 4329.67 4265.75 4198.38 4137.80 4091.93 4066.98 
70.0    4510.66 4514.82 4525.79 4538.50 4544.02 4531.58 4493.56 4430.03 4349.16 4264.14 4189.15 4136.36 4116.23 
75.0    4571.69 4578.92 4598.75 4624.58 4643.97 4641.31 4605.30 4535.85 4444.23 4348.21 4266.71 4214.61 4197.41 
80.0    4589.26 4599.89 4629.95 4672.23 4711.63 4727.52 4703.56 4637.96 4544.51 4445.35 4362.66 4311.10 4294.20 
85.0    4559.53 4573.15 4612.65 4671.39 4733.36 4774.35 4772.55 4722.16 4637.24 4542.86 4463.23 4413.11 4396.46 
90.0    4490.29 4505.95 4552.29 4624.01 4705.61 4771.88 4797.61 4771.88 4705.61 4624.01 4552.29 4505.95 4490.29 